tick,angle
0,-83.449101387994133
1,-83.449101387994133
2,-71.060762880076652
3,-58.672424372159171
4,-46.284085864241689
5,-33.895747356324208
6,-21.507408848406726
7,-21.5074088561948
8,-22.60982487460037
9,-23.362865601377212
10,-23.929405950217991
11,-24.386370944870425
12,-24.775210933973714
13,-25.120155923677338
14,-25.436155991471185
15,-25.732782220510941
16,-26.016316858960003
17,-26.290948800177247
18,-26.559492829552209
19,-26.823840210181366
20,-27.085250369079699
21,-27.344544799537641
22,-27.602238959099111
23,-27.858633542360515
24,-28.11387871040295
25,-28.368019776120576
26,-28.621030095792335
27,-28.872834854430657
28,-29.123328428847827
29,-29.372387024267127
30,-29.619877938643494
31,-29.865666279584051
32,-30.109619879337892
33,-30.35161272658398
34,-30.591527435417373
35,-30.829256900516683
36,-31.064705349585278
37,-31.297788981274671
38,-31.528436225667335
39,-31.756587825846559
40,-31.982196619990198
41,-32.205227294453515
42,-32.425655971125273
43,-32.643469725973851
44,-32.858666071980181
45,-33.071252411314759
46,-33.28124544326068
47,-33.488670579823065
48,-33.693561319884139
49,-33.895958705250962
50,-34.095910684802242
51,-34.293471550306108
52,-34.488701344095084
53,-34.681665341721242
54,-34.872433447645328
55,-35.061079710020813
56,-35.247681761621074
57,-35.432320335721109
58,-35.615078760457337
59,-35.796042477256776
60,-35.975298581232984
61,-36.152935351484729
62,-36.329041808153384
63,-36.503707294204013
64,-36.677021013378734
65,-36.849071642982167
66,-37.019946937249458
67,-37.189733284272037
68,-37.358515362677849
69,-37.526375720247152
70,-37.693394413243993
71,-37.859648646501142
72,-38.02521237769254
73,-38.19015596473713
74,-38.354545840535337
75,-38.518444099941235
76,-38.681908213463657
77,-38.844990623738767
78,-39.007738460111291
79,-39.170193150006163
80,-39.332390104839973
81,-39.494358408839012
82,-39.656120440365328
83,-39.817691609248328
84,-39.979079977557355
85,-40.140285975504888
86,-40.301302100004158
87,-40.46211258292962
88,-40.622693106804221
89,-40.78301053363073
90,-40.943022593030321
91,-41.102677662607661
92,-41.26191447684409
93,-41.420661904987995
94,-41.578838765380425
95,-41.736353605467649
96,-41.893104560119312
97,-42.048979231674004
98,-42.203854598086131
99,-42.357596988888723
100,-42.510062110372914
101,-42.661095130154365
102,-42.810530870058074
103,-42.958194045713441
104,-43.103899686367491
105,-43.247453607036491
106,-43.388653113078973
107,-43.527287843526949
108,-43.663140862134206
109,-43.795989968061086
110,-43.925609381504387
111,-44.05177174557403
112,-44.174250593540719
113,-44.292823331736457
114,-44.407274866986498
115,-44.517401989299344
116,-44.623018660523094
117,-44.723962407469187
118,-44.820102083167363
119,-44.911347211825429
120,-44.997659378458252
121,-45.079066040080647
122,-45.155677381324026
123,-45.227706917823099
124,-45.295496797940018
125,-45.359549009743461
126,-45.420564029343787
127,-45.479489009301695
128,-45.53757818253402
129,-45.596469143661288
130,-45.65827991311761
131,-45.725733556577531
132,-45.802319724518355
133,-45.892506396169544
134,-46.002020851425684
135,-46.138227804645084
136,-46.31064641416318
137,-46.531670281641894
138,-46.817591357516122
139,-47.190092322543173
140,-47.678485520561978
141,-48.323189924297125
142,-49.181362278584587
143,-50.33650429918093
144,-51.915979882428928
145,-54.125887813810962
146,-57.329533077548625
147,-62.259921834960267
148,0
149,0
150,0
151,0
152,0
153,0
154,0
155,0
156,0
157,0
158,0
159,0
160,0
161,0
162,0
163,20.220338035227371
164,40.440676070454742
165,60.661014105682113
166,80.881352140909485
167,80.881352123702527
168,76.220797022058534
169,72.315249154686896
170,68.910968929569492
171,65.880006061859049
172,63.1440931936528
173,60.650073345003847
174,58.359378411255101
175,56.24272222699765
176,54.277115696483833
177,52.444051316712617
178,50.728331268019687
179,49.117275339386481
180,47.600164939622388
181,46.167840823062718
182,44.812404223273809
183,43.52699000489671
184,42.305591204370536
185,41.142921007749734
186,40.034302644634096
187,38.97558021084177
188,37.963046039842752
189,36.993380377017132
190,36.063601300287999
191,35.171022421715705
192,34.313217032979182
193,33.487987561803294
194,32.693339103993097
195,31.927456580393446
196,31.188684815534337
197,30.475511075182943
198,29.786549478022778
199,29.120527336932803
200,28.476272801694577
201,27.85270382025201
202,27.248818062028413
203,26.663683764350168
204,26.096431353667466
205,25.546245583297697
206,25.012358238811814
207,24.494041386007094
208,23.990600721508407
209,23.501369395909144
210,23.025701977819217
211,22.562968424115404
212,22.112548335457795
213,21.67382495513074
214,21.24617931500363
215,20.828984135760411
216,20.421597487100616
217,20.023356233782359
218,19.633569074725621
219,19.251509080616497
220,18.876405689680926
221,18.507435935719997
222,18.143714885920502
223,17.784284925814063
224,17.428103870301364
225,17.074031539087372
226,16.720814492929531
227,16.367068502800056
228,16.011258383587336
229,15.651674460999665
230,15.286404927718362
231,14.913303160425176
232,14.529948540428915
233,14.133599269500184
234,13.721134655608759
235,13.288983907393007
236,12.833037031578431
237,12.348531735964661
238,11.829907478437653
239,11.270613567257948
240,10.662851394563527
241,9.9972191741116418
242,9.262207403935875
243,8.443455387507365
244,7.5226049186027426
245,6.475426973044863
246,5.2685161952498651
247,3.8528006647023925
248,2.1485778676102751
249,8.169459872889016e-09
250,0
251,0
252,0
253,0
