tick,angle,x,y,vx,vy
1,-89.53749999979999,0.3289215900348465,-4.0094579939135046e-07,0.3289215900348465,-4.0094579939135046e-07
2,-51.976618833334165,0.6564889407766995,-0.053961461720957254,0.327567350741853,-0.05396106077515786
3,-37.335572960270554,0.9861900884380204,-0.1421173602221013,0.3297011476613209,-0.08815589850114407
4,-27.21715258568858,1.3210998298198906,-0.2510514842809405,0.33490974138187024,-0.10893412405883919
5,-20.14133133103921,1.6633453871757429,-0.3726242713595951,0.34224555735585227,-0.12157278707865458
6,-15.288431312457902,2.0142515272135584,-0.5021632691025059,0.3509061400378155,-0.12953899774291078
7,-12.476312628029769,2.3745886302770196,-0.6372226287653269,0.3603371030634612,-0.13505935966282095
8,-10.980593185037629,2.744824125906174,-0.7764617112478284,0.3702354956291541,-0.1392390824825015
9,-10.476452974006467,3.125247339058335,-0.9191822166451646,0.38042321315216115,-0.14272050539733627
10,-10.757075212254664,3.516039484995329,-1.0651072624636702,0.39079214593699385,-0.14592504581850552
11,-10.958008447708039,3.917359921222071,-1.2139585078817121,0.4013204362267419,-0.14885124541804196
12,-11.497642793850588,4.3293180528641235,-1.3656544238807873,0.4119581316420529,-0.1516959159990751
13,-12.109130442058316,4.752006579880208,-1.5201697062520465,0.42268852701608445,-0.15451528237125917
14,-12.730071117587528,5.185509676709807,-1.6775049089383711,0.43350309682959953,-0.15733520268632456
15,-13.376514316864789,5.629903502605961,-1.8376936008757236,0.4443938258961544,-0.16018869193735258
16,-13.889328182982467,6.085273626297208,-2.000704963348703,0.4553701236912467,-0.16301136247297934
17,-14.449474897022919,6.5516934558258635,-2.166553976660401,0.46641982952865546,-0.16584901331169832
18,-14.942222454986677,7.029239198070998,-2.335227512251269,0.47754574224513474,-0.16867353559086812
19,-15.449608853848673,7.517980098741444,-2.5067328930827975,0.48874090067044546,-0.1715053808315281
20,-15.948027251514503,8.017981817469954,-2.681085353425946,0.5000017187285097,-0.17435246034314814
21,-16.43496886184245,8.529308435869147,-2.858299259191086,0.5113266183991927,-0.17721390576514032
22,-16.907250442920997,9.052021887187934,-3.038391104131176,0.5227134513187862,-0.1800918449400897
23,-17.363350486700426,9.586182978977465,-3.221374612506078,0.534161091789532,-0.18298350837490202
24,-17.803979660163563,10.131850610430615,-3.407264222657581,0.54566763145315,-0.18588961015150304
25,-18.231324777177406,10.689083559717602,-3.596065925581156,0.557232949286988,-0.18880170292357498
26,-18.64787273895635,11.257937620235552,-3.7877899742417163,0.5688540605179496,-0.19172404866056028
27,-19.055520706415635,11.838466868545956,-3.9824456934981156,0.5805292483104035,-0.1946557192563995
28,-19.45525029918754,12.430722833516212,-4.180045550629899,0.5922559649702556,-0.19759985713178285
29,-19.84728787560975,13.034754802949635,-4.380604544928876,0.6040319694334241,-0.200558994298977
30,-20.2314997760446,13.650611048143196,-4.584134941051226,0.6158562451935606,-0.20353039612234985
31,-20.607770907002262,14.278338755059837,-4.790646025070443,0.6277277069166414,-0.20651108401921764
32,-20.976218836626813,14.917982910483065,-5.000148786682912,0.6396441554232281,-0.20950276161246834
33,-21.33722054665911,15.569586501413271,-5.212655490239449,0.6516035909302056,-0.21250670355653728
34,-21.691314064879023,16.233191791673576,-5.428174187591723,0.6636052902603068,-0.2155186973522736
35,-22.039062163892254,16.908837870457887,-5.646719020809143,0.6756460787843109,-0.21854483321741966
36,-22.380944508514673,17.596563457812366,-5.8682990657494125,0.6877255873544771,-0.22158004494026984
37,-22.717306535704765,18.296405469275914,-6.092923706682362,0.6998420114635483,-0.22462464093295004
38,-23.048362221353955,19.00839911498316,-6.320602376243694,0.7119936457072452,-0.227678669561332
39,-23.174235094514888,19.732624056004504,-6.551146329921801,0.7242249410213444,-0.2305439536781075
40,-23.895024022585385,20.46900199029735,-6.784990466837642,0.736377934292847,-0.23384413691584122
41,-24.010880201101727,21.217627420484618,-7.021923196253706,0.7486254301872672,-0.23693272941606347
42,-24.322051952412934,21.978529946311554,-7.261951291707257,0.7609025258269343,-0.2400280954535511
43,-24.62877022930894,22.751736241546237,-7.5050865234850805,0.7732062952346815,-0.2431352317778234
44,-24.930781882263517,23.537271877708335,-7.751339256603872,0.7855356361620996,-0.24625273311879126
45,-25.22880130863392,24.335161307362988,-8.000718355204821,0.7978894296546523,-0.2493790986009496
46,-25.5228145833687,25.145426302213274,-8.253237187057417,0.8102649948502859,-0.25251883185259655
47,-25.812725280376654,25.968087843362266,-8.508907050384519,0.822661541148993,-0.25566986332710234
48,-26.099085118612066,26.80316605452161,-8.767737164231399,0.8350782111593467,-0.2588301138468792
49,-26.38183219378388,27.650680142520372,-9.02973464822781,0.84751408799876,-0.26199748399641204
50,-26.66095444369509,28.510646650138874,-9.294910898317617,0.8599665076185028,-0.2651762500898074
51,-26.9365609440666,29.383081479965693,-9.563274734320409,0.872434829826819,-0.26836383600279207
52,-27.208839959826342,30.267998040210408,-9.834838962948755,0.8849165602447155,-0.2715642286283453
53,-27.47803153951341,31.165409320109944,-10.10961340600324,0.8974112798995371,-0.274774443054484
54,-27.74395830464796,32.07532777037012,-10.387604977018137,0.9099184502601821,-0.27799157101489763
55,-28.006905599913757,32.997763315122036,-10.66882450918247,0.9224355447519099,-0.2812195321643329
56,-28.26675476229535,33.93272553694228,-10.953279577052074,0.934962221820246,-0.28445506786960406
57,-28.523720356222938,34.880221596564176,-11.2409814763326,0.9474960596219012,-0.2877018992805258
58,-28.77790800293647,35.840258473513444,-11.531937941677242,0.9600368769492663,-0.29095646534464326
59,-29.029286424543493,36.81284079110294,-11.826160294512723,0.9725823175895006,-0.2942223528354807
60,-29.27794679558226,37.79797312524673,-12.123656028233352,0.9851323341437841,-0.29749573372062793
61,-29.52400740224538,38.79565773517389,-12.424436126678822,0.9976846099271652,-0.30078009844546955
62,-29.76753813210886,39.80589479886838,-12.728514750334663,1.0102370636944928,-0.30407862365584065
63,-30.008566466516612,40.828686979889646,-13.035894380420121,1.022792181021266,-0.3073796300854581
64,-30.24711300161775,41.864032185709036,-13.346588555906244,1.035345205819387,-0.3106941754861237
65,-30.483213945592475,42.91192872375595,-13.66060623080585,1.0478965380469116,-0.31401767489960575
66,-30.716922944448505,43.97237508934938,-13.977952007106197,1.0604463655934304,-0.3173457763003468
67,-30.948303119555526,45.04536744331454,-14.298633893726432,1.0729923539651596,-0.3206818866202356
68,-31.177420113741817,46.13089984588826,-14.622662989262343,1.0855324025737223,-0.3240290955359114
69,-31.404338926075866,47.228966864781604,-14.95004555240949,1.0980670188933426,-0.32738256314714625
70,-31.62912057355878,48.339560913568846,-15.280790972869127,1.1105940487872432,-0.33074542045963645
71,-31.851813559649607,49.46267245791311,-15.614911498586679,1.12311154434426,-0.3341205257175508
72,-32.07244066107776,50.59829272563557,-15.95241412683333,1.1356202677224587,-0.33750262824665206
73,-32.29099181680902,51.74641089883975,-16.293308818505547,1.148118173204181,-0.34089469167221587
74,-32.50744264017576,52.907016906162696,-16.637600269745853,1.1606060073229483,-0.3442914512403048
75,-32.721813058527886,54.080098550815954,-16.9852962217135,1.1730816446532595,-0.3476959519676491
76,-32.93424562308393,55.26564171041101,-17.336407196266407,1.1855431595950587,-0.35111097455290485
77,-33.145018659770486,56.463633230888284,-17.690938105513823,1.1979915204772733,-0.35453090924741526
78,-33.35436228940338,57.67405791283883,-18.048896792017747,1.210424681950551,-0.3579586865039228
79,-33.562036478265256,58.8968987110562,-18.410293748662554,1.2228407982173695,-0.3613969566448068
80,-33.76696593170385,60.13213689854502,-18.77514190555922,1.2352381874888163,-0.3648481568966659
81,-33.96755156124377,61.37975795622502,-19.143439660096895,1.2476210576799995,-0.3682977545376768
82,-34.1623564717903,62.63974504734698,-19.5151886762991,1.259987091121955,-0.3717490162022055
83,-34.346772256342504,63.912088068703326,-19.890368125287075,1.2723430213563494,-0.37517944898797495
84,-34.503531234927685,65.19678553889572,-20.268927590378535,1.2846974701923917,-0.378559465091458
85,-34.56991417315841,66.49388233252233,-20.650677420050563,1.2970967936266078,-0.38174982967202953
86,-34.36807046122998,67.80355933785845,-21.035023828279062,1.3096770053361138,-0.384346408228499
87,-33.40686989400098,69.12637649174334,-21.420247480831737,1.322817153884903,-0.38522365255267516
88,-30.06672507668548,70.46401451979864,-21.801272877482585,1.3376380280552955,-0.38102539665084884
89,-18.63418684081728,71.82085005019404,-22.164452567031432,1.356835530395403,-0.36317968954884533
90,-1.3249149333205423e-08,73.19825854889297,-22.502417059791227,1.3774084986989288,-0.3379644927597969
91,-1.2269239846318669e-08,74.59378761235304,-22.818141748550236,1.3955290634600719,-0.31572468875900866
92,-1.113278358388925e-10,76.0052744685439,-23.11425092979878,1.4114868561908558,-0.2961091812485419
93,-2.841689607180342e-06,77.4308117979544,-23.393059233086365,1.4255373294104987,-0.2788083032875877
94,-1.213038558489643e-10,78.86871758774518,-23.6566081617154,1.4379057897907703,-0.26354892862903684
95,-0.007743647744064219,80.3175085431352,-23.90669832163365,1.44879095539002,-0.2500901599182505
96,-2.1722746765817647e-06,81.7758766362686,-24.144917847317952,1.4583680931334033,-0.23821952568430182
97,-0.016467009915217545,83.24266842233887,-24.37266747340414,1.4667917860702542,-0.22774962608618618
98,-6.426148502214346e-11,84.71686679643376,-24.59118264786506,1.4741983740948927,-0.2185151744609204
99,-5.7696070143720135e-11,86.19757490309594,-24.801553035833976,1.4807081066621823,-0.21037038796891613
100,-2.635272906559294e-05,87.6840019445784,-25.00473972197713,1.4864270414824525,-0.20318668614315383
101,1.437252017427335e-11,89.17545066374862,-25.201590382986645,1.4914487191702184,-0.19685066100951507
102,4.951349748606845,90.66661578901017,-25.37726536427245,1.4911651252615388,-0.17567498128580641
103,16.45670782737819,92.14424786871454,-25.502699736656314,1.4776320797043772,-0.1254343723838642
104,27.17420938996567,93.59419464728659,-25.560603128647383,1.4499467785720368,-0.057903391991068524
105,38.54139048547085,95.00296032055438,-25.54039051844308,1.4087656732677931,0.02021261020430423
106,52.703243344340635,96.35893327023093,-25.435462642229638,1.3559729496765567,0.1049278762134409
107,55.658584860269364,97.66144432726189,-25.251883273178596,1.3025110570309564,0.1835793690510414
108,53.55887002187173,98.91358594879357,-24.998195193607472,1.252141621531678,0.25368807957112516
109,51.6256373413261,100.11822083097366,-24.682188788104572,1.2046348821800943,0.31600640550289927
110,49.84965432350225,101.27799543608992,-24.31096328142588,1.1597746051162712,0.3712255066786897
111,48.18950119930138,102.39536524319296,-23.891001028701737,1.1173698071030351,0.4199622527241431
112,46.635353125048795,103.47261191126583,-23.42822536600919,1.077246668072881,0.4627756626925461
113,45.18082750091986,104.5118549614509,-22.928047333385766,1.0392430501850587,0.5001780326234242
114,43.797059286625924,105.51507096203513,-22.395419569694795,1.0032160005842352,0.53262776369097
115,42.49243899931407,106.4841041153912,-21.834875200292583,0.9690331533560798,0.560544369402211
116,41.25367020265784,107.42067389509671,-21.250560591563904,0.9365697797055138,0.5843146087286802
117,40.07389174302649,108.32638975816357,-20.646275141056794,0.9057158630668609,0.604285450507111
118,38.94857862046821,109.20275760672264,-20.025498082827664,0.8763678485590732,0.6207770582291299
119,37.8718270961035,110.05118831642542,-19.39141628611029,0.848430709702777,0.6340817967173754
120,36.83860554690069,110.8730057095998,-18.746949644143672,0.8218173931743755,0.6444666419666155
121,35.846607711978,111.66945399618275,-18.094774222425755,0.7964482865829575,0.6521754217179172
122,34.885159692951696,112.44170468791083,-17.437343337933864,0.7722506917280766,0.657430884491891
123,33.976152074897264,113.19085207491575,-16.776894363366964,0.7491473870049297,0.6604489745669013
124,33.08048677356957,113.91793515775383,-16.115485194069656,0.7270830828380811,0.6614091692973066
125,32.2199986836529,114.6239322041133,-15.454997488296243,0.7059970463594656,0.660487705773413
126,31.38852461615109,115.30976430092906,-14.797150006294391,0.6858320968157638,0.6578474820018524
127,30.575971015246594,115.97630475407888,-14.14351746577657,0.6665404531498237,0.6536325405178202
128,29.787388098736574,116.62437972369361,-13.495538750585723,0.648074969614732,0.647978715190847
129,29.018627377559017,117.25477086140162,-12.854526868145916,0.6303911377080145,0.6410118824398076
130,28.268300473189143,117.86821779868372,-12.22167820294806,0.6134469372820872,0.6328486651978551
131,27.53426051990471,118.46542420657667,-11.598084944301865,0.5972064078929493,0.6235932586461951
132,26.815201510329835,119.04705785863173,-10.984740580692671,0.5816336520550662,0.6133443636091942
133,26.101740519543572,119.6137561367921,-10.382550718973985,0.5666982781603732,0.6021898617186864
134,25.409744244434783,120.16612230696514,-9.792333883604737,0.5523661701730367,0.5902168353692482
135,24.726354756158884,120.7047308323797,-9.214831488572303,0.5386085254145664,0.5775023950324351
136,24.0344085062,121.23013558351535,-8.650720277819094,0.5254047511356535,0.5641112107532084
137,23.376017573830904,121.74285750409832,-8.100603152751066,0.5127219205829736,0.5501171250680275
138,22.7145195856,122.24339620338682,-7.56502486738638,0.5005386992884927,0.5355782853646863
139,22.03223656910794,122.73223887540257,-7.044484479651151,0.48884267201574455,0.5205403877352284
140,21.359685086153238,123.20984816927343,-6.539425422077224,0.47760929387085094,0.505059057573927
141,20.683060137528138,123.67666959628984,-6.050246326082721,0.46682142701641194,0.4891790959945031
142,19.998710467403843,124.1331337800784,-5.577306143414129,0.45646418378854847,0.4729401826685929
143,19.305718129146886,124.57965559325669,-5.120925793071507,0.4465218131782945,0.45638035034262175
144,18.590590040315718,125.01663919289106,-4.681396424477765,0.4369835996343721,0.43952936859374164
145,17.857877157511073,125.44447837409388,-4.258982506462101,0.4278391812028145,0.4224139180156639
146,17.09706575684346,125.86355692676625,-3.8539249375606945,0.41907855267237626,0.4050575689014067
147,16.301557144207802,126.27425311725398,-3.4664496036459527,0.41069619048773,0.38747533391474187
148,15.461173291787428,126.67694112353567,-3.0967727348881766,0.4026880062816918,0.3696768687577761
149,14.562600106177099,127.07199372467677,-2.745108689537972,0.3950526011410971,0.3516640453502043
150,13.590172512764656,127.45978744652162,-2.41168277495783,0.38779372184484523,0.3334259145801425
151,12.522760515586894,127.84070737401154,-2.0967461705304213,0.38091992748993336,0.31493660442740845
152,11.330848467472485,128.21515169270282,-1.800593893460296,0.37444431869128064,0.29615227707012526
153,9.973998870609885,128.58354106329494,-1.5235969750389906,0.3683893705921238,0.2769969184213055
154,8.391932238822054,128.94633126792658,-1.2662518038719048,0.3627902046316465,0.2573451711670858
155,6.695747177055647,129.3039871299544,-1.0291508694053113,0.35765586202783806,0.23710093446659347
156,4.191774465794636,129.65713481393936,-0.813427884258251,0.35314768398495494,0.21572298514706037
157,1.1392242791180713,130.00650125701364,-0.6207636435998407,0.34936644307428144,0.19266424065841029
158,1.5815385903464092e-11,130.35237403898898,-0.4515526844612896,0.34587278197535665,0.1692109591385511
159,1.2431514464015596e-11,130.6947880964431,-0.3053259416595363,0.34241405745410297,0.14622674280175327
160,9.41259773177623e-12,131.03377801658817,-0.18162373130623405,0.33898992014507684,0.12370221035330227
161,6.632760587946388e-12,131.36937804076464,-0.07999556318203514,0.3356000241764859,0.1016281681241989
162,-3.1939643164946574e-05,131.7016220678999,4.313661353116949e-08,0.33224402713525225,0.07999560631864867
