tick,angle,x,y,vx,vy,min_y
1,-0.049929041834445798,0.0017820025663348755,-0.01764003959656139,0.0017820025663348755,-0.01764003959656139,-0.01764003959656139
2,-0.049929041834335774,0.006899914109342823,-0.050838595656580984,0.0051179115430079478,-0.033198556060019591,-0.050838595656580984
3,-0.054472271847209444,0.016706638409785767,-0.097759764595025542,0.0098067243004429441,-0.046921168938444557,-0.097759764595025542
4,-0.096933861512115679,0.032377970153268446,-0.1567843927355379,0.015671331743482682,-0.059024628140512375,-0.1567843927355379
5,-0.18310619731434979,0.054933666189416981,-0.22648472358059674,0.022555696036148536,-0.069700330845058847,-0.22648472358059674
6,-0.31029963391486992,0.085256028688984811,-0.30560219719899218,0.03032236249956783,-0.079117473618395412,-0.30560219719899218
7,-0.47405718777640382,0.12410629798429668,-0.39302806656212724,0.038850269295311858,-0.087425869363135053,-0.39302806656212724
8,-0.66984556038568122,0.17213914119468379,-0.48778622454977844,0.048032843210387109,-0.094758157987651179,-0.48778622454977844
9,-0.89351797499743546,0.22991543090344085,-0.58901840422665586,0.057776289708757075,-0.10123217967687746,-0.58901840422665586
10,-1.1414144960421302,0.29791359621823055,-0.69597070874306577,0.06799816531478968,-0.10695230451640997,-0.69597070874306577
11,-1.4103476486701689,0.37653963636609483,-0.80798200919256324,0.078626040147864285,-0.11201130044949752,-0.80798200919256324
12,-1.6975539701201834,0.46613598989332833,-0.92447376864204422,0.089596353527233497,-0.11649175944948101,-0.92447376864204422
13,-2.0006393768058892,0.56698949185069158,-1.0449402182169796,0.10085350195736326,-0.12046644957493537,-1.0449402182169796
14,-2.3175278880998622,0.67933833187569881,-1.1689402317112747,0.1123488400250072,-0.12400001349429503,-1.1689402317112747
15,-2.6464165122682992,0.80337815677099378,-1.2960907213022472,0.12403982489529496,-0.12715048959097242,-1.2960907213022472
16,-2.9857366012702959,0.93926762795045704,-1.4260598426542737,0.13588947117946321,-0.12996912135202635,-1.4260598426542737
17,-3.334121105869206,1.0871333652687734,-1.5585606623141919,0.14786573731831629,-0.13250081965991822,-1.5585606623141919
18,-3.6903769234053327,1.2470741171040007,-1.693346957556864,0.15994075183522735,-0.13478629524267213,-1.693346957556864
19,-4.0534615333804878,1.4191646938021112,-1.8302080003603944,0.17209057669811034,-0.1368610428035304,-1.8302080003603944
20,-4.4224632056038296,1.6034591921081334,-1.9689656262317907,0.18429449830602224,-0.13875762587139634,-1.9689656262317907
21,-4.7965841718723485,1.7999942922994348,-2.1094687368234943,0.19653510019130138,-0.14050311059170356,-2.1094687368234943
22,-5.1751262567367515,2.008791675625957,-2.2515912866093393,0.20879738332652215,-0.14212254978584504,-2.2515912866093393
23,-5.5574785526221557,2.2298605180865256,-2.3952283277385371,0.22106884246056857,-0.14363704112919801,-2.3952283277385371
24,-5.9431067990916073,2.4631992921541097,-2.540294900499128,0.23333877406758399,-0.14506657276059082,-2.540294900499128
25,-6.3315441890714776,2.7087975921773868,-2.6867239363067994,0.24559830002327693,-0.14642903580767144,-2.6867239363067994
26,-6.7223833742545818,2.9666379600410808,-2.8344628995322556,0.25784036786369396,-0.14773896322545615,-2.8344628995322556
27,-7.1152694821654769,3.2366969945091228,-2.9834737176075135,0.27005903446804197,-0.14901081807525793,-2.9834737176075135
28,-7.5098939913095712,3.5189468646138495,-3.1337296448821346,0.2822498701047268,-0.15025592727462103,-3.1337296448821346
29,-7.9059893358587114,3.8133563300129332,-3.2852139344909794,0.29440946539908353,-0.15148428960884469,-3.2852139344909794
30,-8.3033241342872621,4.1198916281356848,-3.4379186790880558,0.30653529812275143,-0.15270474459707631,-3.4379186790880558
31,-8.7016989526147626,4.4385169488123255,-3.5918458150310459,0.31862532067664112,-0.15392713594299004,-3.5918458150310459
32,-9.1009425281031611,4.7691958558093654,-3.7470020619932893,0.33067890699704017,-0.15515624696224337,-3.7470020619932893
33,-9.5009083907538052,5.1118910696054707,-3.9034024832305643,0.3426952137961054,-0.15640042123727493,-3.9034024832305643
34,-9.9014718290861836,5.4665654529033327,-4.0610675477318106,0.35467438329786227,-0.15766506450124645,-4.0610675477318106
35,-10.302527155576144,5.8331824347957042,-4.2200225189576974,0.36661698189237163,-0.15895497122588664,-4.2200225189576974
36,-10.703985233208444,6.2117063719302603,-4.380296923938034,0.37852393713455584,-0.16027440498033649,-4.380296923938034
37,-11.105771229669593,6.602102853113248,-4.5419241017400651,0.39039648118298781,-0.16162717780203081,-4.5419241017400651
38,-11.507822571821171,7.0043389595381402,-4.7049407924055995,0.40223610642489244,-0.16301669066553437,-4.7049407924055995
39,-11.910087075471392,7.418383037896068,-4.8693895556263724,0.41404407835792773,-0.1644487632207732,-4.8693895556263724
40,-12.312521228980724,7.8442059846843293,-5.035312710210035,0.42582294678826116,-0.16592315458366286,-5.035312710210035
41,-12.715088613155054,8.2817807112049042,-5.2027550617271592,0.4375747265205745,-0.16744235151712403,-5.2027550617271592
42,-13.117758441264275,8.7310817563197816,-5.3717667273921297,0.44930104511487823,-0.16901166566497042,-5.3717667273921297
43,-13.520504204189471,9.1920866331657205,-5.5423965714682026,0.46100487684593972,-0.17062984407607262,-5.5423965714682026
44,-13.92330241039501,9.6647751282142469,-5.7146953658193631,0.47268849504852672,-0.17229879435116041,-5.7146953658193631
45,-14.326131407797371,10.149129359530939,-5.8887156136090208,0.48435423131669192,-0.17402024778965808,-5.8887156136090208
46,-14.728970279953622,10.645133216226657,-6.0645148462868894,0.49600385669571861,-0.17579923267786829,-6.0645148462868894
47,-15.131797806449343,11.152773838182846,-6.2421483560258313,0.50764062195618875,-0.17763350973894171,-6.2421483560258313
48,-15.53459148179733,11.672040729120331,-6.4216728544040222,0.51926689093748557,-0.17952449837819109,-6.4216728544040222
49,-15.937326584926211,12.202925088655061,-6.6031500721404477,0.53088435953472879,-0.18147721773642567,-6.6031500721404477
50,-16.339975293671799,12.74542142213167,-6.7866389463901102,0.54249633347661053,-0.18348887424966276,-6.7866389463901102
51,-16.742505839656623,13.299526527817036,-6.9721996281270364,0.55410510568536631,-0.18556068173692608,-6.9721996281270364
52,-17.144881698242337,13.865238718295792,-7.159897418770508,0.56571219047875576,-0.18769779064347158,-7.159897418770508
53,-17.547060809692251,14.442559589414966,-7.3497943682861413,0.57732087111917441,-0.18989694951563321,-7.3497943682861413
54,-17.948994827638735,15.031492888352915,-7.5419536087494032,0.58893329893794988,-0.1921592404632621,-7.5419536087494032
55,-18.350628392079862,15.632044462799579,-7.7364393298897154,0.60055157444666307,-0.19448572114031179,-7.7364393298897154
56,-18.751898423315524,16.244222210120796,-7.9333167346716333,0.61217774732121788,-0.19687740478191795,-7.9333167346716333
57,-19.152733434612344,16.868036016375051,-8.1326520215037625,0.62381380625425331,-0.19933528683212884,-8.1326520215037625
58,-19.553052861256752,17.503497694490566,-8.3345123543787221,0.63546167811551435,-0.201860332874959,-8.3345123543787221
59,-19.952766404172969,18.150620913528744,-8.5389658581133467,0.6471232190381776,-0.20445350373462551,-8.5389658581133467
60,-20.351773386352495,18.809422127329842,-8.746076817739187,0.65880121380109835,-0.207110959625841,-8.746076817739187
61,-20.749962120439772,19.479918154062613,-8.9559156382268235,0.67049602673277098,-0.20983882048763691,-8.9559156382268235
62,-21.147209286884049,20.162128550157057,-9.1685486383913535,0.68221039609444456,-0.21263300016453024,-9.1685486383913535
63,-21.543379321543632,20.856074134629214,-9.384043356499074,0.69394558447215815,-0.21549471810771981,-9.384043356499074
64,-21.938323812033488,21.561776941044464,-9.6024685052456373,0.70570280641524952,-0.21842514874656421,-9.6024685052456373
65,-22.331880903488681,22.279260160959797,-9.8238939445446789,0.71748321991533237,-0.22142543929904174,-9.8238939445446789
66,-22.723874712742841,23.008549294390786,-10.048385314948629,0.72928913343098989,-0.22449137040394909,-10.048385314948629
67,-23.114114752483257,23.749670534506205,-10.276009725023822,0.7411212401154188,-0.22762441007519427,-10.276009725023822
68,-23.502395365664391,24.502650736925325,-10.506835699069331,0.75298020241912111,-0.23082597404550917,-10.506835699069331
69,-23.888495172208703,25.267518719683306,-10.740927467443989,0.76486798275797996,-0.23409176837465673,-10.740927467443989
70,-24.272176529751839,26.044303531808389,-10.978350972707196,0.77678481212508188,-0.23742350526320719,-10.978350972707196
71,-24.653185011018252,26.833035861431107,-11.219167952197248,0.78873232962271911,-0.24081697949005318,-11.219167952197248
72,-25.031248901366162,27.633746251560233,-11.463442081133875,0.8007103901291277,-0.24427412893662698,-11.463442081133875
73,-25.406078720697934,28.446465113913554,-11.711238874682723,0.81271886235332291,-0.24779679354884768,-11.711238874682723
74,-25.777366775364094,29.271225819542725,-11.962613365205961,0.82476070562917037,-0.25137449052323868,-11.962613365205961
75,-26.144786745916157,30.108060872667131,-12.217623095396005,0.83683505312440687,-0.25500973019004453,-12.217623095396005
76,-26.507993319095419,30.957003618535868,-12.476321635957987,0.84894274586873619,-0.25869854056198144,-12.476321635957987
77,-26.866621873450192,31.818087968935394,-12.738758785976907,0.86108435039952691,-0.26243715001891943,-12.738758785976907
78,-27.220288230432576,32.691346438705175,-13.004987210710656,0.87325846976978094,-0.26622842473374797,-13.004987210710656
79,-27.568588484389213,33.576813785496896,-13.275049108708835,0.88546734679172079,-0.27006189799817909,-13.275049108708835
80,-27.911098928891111,34.474522809746574,-13.548990054796127,0.89770902424967791,-0.27394094608729253,-13.548990054796127
81,-28.247376099992039,35.384508233887097,-13.826845245570482,0.90998542414052563,-0.27785519077435605,-13.826845245570482
82,-28.576956959872398,36.306804253305046,-14.108646855070148,0.92229601941794925,-0.28180160949966671,-14.108646855070148
83,-28.899359252036135,37.241446348883677,-14.394417197268627,0.9346420955786281,-0.28577034219847836,-14.394417197268627
84,-29.214082062515143,38.188466825051833,-14.684183177977978,0.94702047616815699,-0.289765980709352,-14.684183177977978
85,-29.520606632117271,39.147899184757115,-14.977961721308493,0.95943235970527996,-0.29377854333051423,-14.977961721308493
86,-29.818397470771725,40.119777664394903,-15.275760260865603,0.97187847963778506,-0.29779853955711061,-15.275760260865603
87,-30.106903839727217,41.104136833145944,-15.577577144881712,0.98435916875104046,-0.30181688401610901,-15.577577144881712
88,-30.38556167912467,42.101009053560929,-15.883409331742493,0.99687222041498602,-0.3058321868607819,-15.883409331742493
89,-30.653796076741365,43.110426758400862,-16.193244887436006,1.009417704839932,-0.30983555569351218,-16.193244887436006
90,-30.911024396222317,44.132422119918843,-16.50706336165775,1.0219953615179824,-0.31381847422174575,-16.50706336165775
91,-31.156660209645864,45.16702908277631,-16.824828555511004,1.0346069628574679,-0.31776519385325652,-16.824828555511004
92,-31.39011821368041,46.214278008591727,-17.146504520688222,1.047248925815415,-0.32167596517721658,-17.146504520688222
93,-31.610820353196921,47.274200678195363,-17.472039952698804,1.0599226696036377,-0.32553543201058122,-17.472039952698804
94,-31.818203430820517,48.346827256908838,-17.80137667081312,1.0726265787134717,-0.3293367181143162,-17.80137667081312
95,-32.011728552500642,49.432188630935457,-18.134442023563516,1.0853613740266179,-0.33306535275039389,-18.134442023563516
96,-32.190892851370492,50.530313358931402,-18.471157443832986,1.0981247279959432,-0.33671542026947027,-18.471157443832986
97,-32.355244051119286,51.641230156040585,-18.811430670069392,1.1109167971091845,-0.3402732262364046,-18.811430670069392
98,-32.504398586820336,52.764967416332603,-19.155156403527251,1.1237372602920142,-0.34372573345785973,-19.155156403527251
99,-32.638064207717242,53.901552764346306,-19.502216960651936,1.1365853480137063,-0.34706055712468664,-19.502216960651936
100,-32.756068261203644,55.051009991606868,-19.852490917533618,1.1494572272605612,-0.35027395688168339,-19.852490917533618
101,-32.858393227679109,56.21336449312102,-20.205836915326032,1.1623545015141492,-0.35334599779241338,-20.205836915326032
102,-32.94522157819992,57.388636980376091,-20.562111144621358,1.1752724872550715,-0.35627422929532637,-20.562111144621358
103,-33.016992718244666,58.576846344820694,-20.921159105927966,1.1882093644446063,-0.35904796130660632,-20.921159105927966
104,-33.074475741730872,59.778006521305286,-21.282824396274261,1.2011601764845925,-0.36166529034629619,-21.282824396274261
105,-33.118863074731301,60.992129402850964,-21.646940408841932,1.2141228815456806,-0.36411601256766923,-21.646940408841932
106,-33.151892027134132,62.219221649247729,-22.013339190128665,1.2270922463967617,-0.36639878128673392,-22.013339190128665
107,-33.176004088762674,63.459284798449239,-22.381851398414916,1.2400631492015117,-0.36851220828625164,-22.381851398414916
108,-33.194555977509232,64.712312512469708,-22.752314565549426,1.2530277140204631,-0.3704631671345085,-22.752314565549426
109,-33.212102742003225,65.978285411863908,-23.12458905610427,1.2659728993942028,-0.37227449055484541,-23.12458905610427
110,-33.234782933541183,67.257175479032213,-23.498547748519346,1.2788900671683103,-0.37395869241507496,-23.498547748519346
111,-33.270851221833041,68.548941141749211,-23.87409162291905,1.2917656627169993,-0.37554387439970177,-23.87409162291905
112,-33.331428809423862,69.853520329325576,-24.2511725432067,1.3045791875763648,-0.37708092028765,-24.2511725432067
113,-33.431583945583064,71.170824831094052,-24.629814273043309,1.3173045017684719,-0.37864172983661043,-24.629814273043309
114,-33.591927915894097,72.500738675714899,-25.010123695805429,1.3299138446208403,-0.38030942276212021,-25.010123695805429
115,-33.841044777495831,73.843104958876424,-25.392335597005527,1.3423662831615295,-0.38221190120009679,-25.392335597005527
116,-34.219327375178182,75.197708468381549,-25.776872470473595,1.3546035095051236,-0.38453687346806897,-25.776872470473595
117,-34.785309287255089,76.564253856222038,-26.164420140504713,1.3665453878404852,-0.38754767003111695,-26.164420140504713
118,-35.626715943236547,77.942325643557666,-26.556056566165701,1.3780717873356314,-0.39163642566098567,-26.556056566165701
119,-36.881189988251343,79.33131499445139,-26.95347398897713,1.3889893508937292,-0.3974174228114285,-26.95347398897713
120,-38.779099648740711,80.73029308459914,-27.359342241778887,1.398978090147754,-0.40586825280175759,-27.359342241778887
121,-41.744992142278441,82.137725772954781,-27.778071086639393,1.4074326883556338,-0.41872884486050638,-27.778071086639393
122,-46.695843495393675,83.550807717655175,-28.217466953372728,1.4130819447003946,-0.43939586673333481,-28.217466953372728
123,0,84.990691028505012,-28.622654115717584,1.439883310849833,-0.40518716234485402,-28.622654115717584
124,0,86.454059696508011,-28.997669200204566,1.4633686680029996,-0.37501508448698267,-28.997669200204566
125,0,87.937990536153592,-29.346072511502967,1.483930839645575,-0.34840331129840207,-29.346072511502967
126,0,89.439906816907467,-29.671004238392221,1.5019162807538773,-0.32493172688925265,-29.671004238392221
127,0,90.957537366339082,-29.975234027429689,1.517630549431618,-0.30422978903746639,-29.975234027429689
128,0,92.488880499231158,-30.261204706926506,1.5313431328920817,-0.28597067949681859,-30.261204706926506
129,0,94.032172203204127,-30.531070851495034,1.5432917039729703,-0.26986614456852881,-30.531070851495034
130,0,95.58585807858519,-30.78673279598036,1.5536858753810672,-0.25566194448532459,-30.78673279598036
131,0,97.148568589519797,-31.029866635748466,1.5627105109346047,-0.24313383976810718,-31.029866635748466
132,0,98.719097235597417,-31.261950686940928,1.5705286460776156,-0.23208405119246225,-31.261950686940928
133,0,100.2963812993696,-31.484288824419988,1.5772840637721817,-0.22233813747906125,-31.484288824419988
134,0,101.87948486580359,-31.698031065836531,1.5831035664339976,-0.21374224141654186,-31.698031065836531
135,0,103.46758384558174,-31.904191726778372,1.5880989797781462,-0.20616066094184143,-31.904191726778372
136,0,105.05995276579144,-32.103665433611383,1.5923689202096902,-0.19947370683300919,-32.103665433611383
137,11.88979146379647,106.64364992775778,-32.259267761357961,1.5836971619663363,-0.15560232774657709,-32.259267761357961
138,23.779582927592941,108.20258604273894,-32.345620016667716,1.5589361149811642,-0.086352255309753434,-32.345620016667716
139,35.669374391389404,109.72099015396962,-32.347621389325802,1.5184041112306859,-0.0020013726580870484,-32.347621389325802
140,47.559165855185881,111.18649570298797,-32.258215969994609,1.4655055490183424,0.089405419331193739,-32.347621389325802
141,59.448957318982345,112.59236731719734,-32.075499869407587,1.405871614209377,0.18271610058702517,-32.347621389325802
142,59.448957318941062,113.9410316037049,-31.80778118665171,1.3486642865075509,0.26771868275587857,-32.347621389325802
143,56.724957149000872,115.23602469220157,-31.464684049984175,1.2949930884966721,0.34309713666753483,-32.347621389325802
144,54.33700754504558,116.4805718682656,-31.054891139306608,1.2445471760640332,0.40979291067756762,-32.347621389325802
145,52.198196738079062,117.67762761388965,-30.586257861824183,1.197055745624062,0.46863327748242539,-32.347621389325802
146,50.257948025690254,118.8299083505535,-30.065907600656043,1.1522807366638381,0.52035026116813898,-32.347621389325802
147,48.482404232310813,119.93991955568359,-29.500312169069879,1.1100112051300983,0.56559543158616499,-32.347621389325802
148,46.847026087612981,121.00997048547582,-28.89534966402892,1.0700509297922292,0.60496250504095894,-32.347621389325802
149,45.333082854750629,122.04219958051718,-28.256372907207869,1.0322290950413526,0.63897675682105315,-32.347621389325802
150,43.925745011233097,123.03858628386374,-27.588255015085331,0.99638670334656143,0.66811789212253958,-32.347621389325802
151,42.612947265929947,124.00096765792777,-26.895438320734634,0.96238137406404389,0.6928166943506967,-32.347621389325802
152,41.384663661581115,124.93105169259915,-26.181975686374926,0.93008403467138268,0.71346263435970803,-32.347621389325802
153,40.232421090275025,125.8304250312691,-25.45156213083645,0.89937333866995262,0.73041355553847687,-32.347621389325802
154,39.14895931207117,126.70056995183651,-24.707575812619719,0.87014492056741832,0.74398631821673078,-32.347621389325802
155,38.127985423931442,127.54286833022603,-23.953100402278768,0.8422983783895136,0.754475410340953,-32.347621389325802
156,37.16399165015747,128.35861013437628,-23.190951628439109,0.81574180415023845,0.76214877383965962,-32.347621389325802
157,36.252116987506319,129.14900360928618,-22.423703981727236,0.79039347490991607,0.76724764671187318,-32.347621389325802
158,35.388040075005989,129.91518025010015,-21.653709707525696,0.7661766408139592,0.76999427420154043,-32.347621389325802
159,34.567894822092583,130.65820380960375,-20.883121041002155,0.74302355950358911,0.77058866652353997,-32.347621389325802
160,33.78820297180976,131.37907222138767,-20.113903281230435,0.7208684117839208,0.76921775977172135,-32.347621389325802
161,33.045819490186233,132.07872366685723,-19.347851619440242,0.69965144546955838,0.76605166179019291,-32.347621389325802
162,32.337887826896761,132.75804216894059,-18.586606297550183,0.67931850208335054,0.76124532189005778,-32.347621389325802
163,31.66180287959412,133.41786077044173,-17.831664339250729,0.65981860150113192,0.75494195829945454,-32.347621389325802
164,31.015180046809125,134.05896452327977,-17.084390454167682,0.64110375283803378,0.7472738850830466,-32.347621389325802
165,30.395829147263846,134.68209708525305,-16.346030607893262,0.62313256197328071,0.73835984627441997,-32.347621389325802
